Point,Time (s),Temperature (K)
0,1.000000e-02,8.998785
1,5.110000e-01,8.998888
2,1.010000e+00,9.003079
3,1.511000e+00,9.007545
4,2.011000e+00,9.012420
5,2.522000e+00,9.009975
6,3.014000e+00,9.023521
7,3.511000e+00,9.115713
8,4.016000e+00,9.278536
9,4.511000e+00,9.437630
10,5.012000e+00,9.641912
11,5.512000e+00,9.799752
12,6.011000e+00,9.987723
13,6.517000e+00,10.119287
14,7.017000e+00,10.249356
15,7.517000e+00,10.320065
16,8.017000e+00,10.372101
17,8.517000e+00,10.384839
18,9.012000e+00,10.364131
19,9.512000e+00,10.318746
20,1.001200e+01,10.236902
21,1.051200e+01,10.165568
22,1.101200e+01,10.073887
23,1.151100e+01,10.003165
24,1.201100e+01,9.924806
25,1.251200e+01,9.884772
26,1.301100e+01,9.863603
27,1.351100e+01,9.861151
28,1.401100e+01,9.866239
29,1.451100e+01,9.875181
30,1.501100e+01,9.895762
31,1.551100e+01,9.919945
32,1.601200e+01,9.953415
33,1.651100e+01,9.985341
34,1.701200e+01,10.024795
35,1.751400e+01,10.054147
36,1.801200e+01,10.077975
37,1.851600e+01,10.083120
38,1.901100e+01,10.078632
39,1.951800e+01,10.071588
40,2.002000e+01,10.057029
41,2.051600e+01,10.046725
42,2.101600e+01,10.040390
43,2.151100e+01,10.029003
44,2.201100e+01,10.020358
45,2.251100e+01,10.003184
46,2.301200e+01,9.989297
47,2.351100e+01,9.980656
48,2.401100e+01,9.976869
49,2.451100e+01,9.971856
50,2.501100e+01,9.966349
51,2.551100e+01,9.971275
52,2.601100e+01,9.980938
53,2.651200e+01,9.987100
54,2.701200e+01,9.996358
55,2.751200e+01,10.005718
56,2.801200e+01,10.009433
57,2.851100e+01,10.015429
58,2.901500e+01,10.018596
59,2.951100e+01,10.015832
60,3.001100e+01,10.013211
61,3.051100e+01,10.008395
62,3.101700e+01,10.004140
63,3.151100e+01,9.996744
64,3.201500e+01,9.991758
65,3.251100e+01,9.990098
66,3.301600e+01,9.997691
67,3.351200e+01,10.006787
68,3.401200e+01,10.011785
69,3.451100e+01,10.009902
70,3.501100e+01,10.003556
71,3.551000e+01,10.002047
72,3.601000e+01,10.000559
73,3.651000e+01,10.002687
74,3.701100e+01,10.004215
75,3.750900e+01,9.999358
76,3.801100e+01,9.991700
77,3.851100e+01,9.993386
78,3.901100e+01,9.992975
79,3.951200e+01,9.990638
80,4.001100e+01,9.989036
81,4.051100e+01,9.990303
82,4.101200e+01,9.997216
83,4.151100e+01,10.003298
84,4.201200e+01,10.012374
85,4.251200e+01,10.016953
86,4.301200e+01,10.021646
87,4.351200e+01,10.024604
88,4.401200e+01,10.020377
89,4.451200e+01,10.017156
90,4.501200e+01,10.014402
91,4.551600e+01,10.012695
92,4.601100e+01,9.999239
93,4.651400e+01,9.979065
94,4.701200e+01,9.959525
95,4.751600e+01,9.957961
96,4.801100e+01,9.966815
97,4.851200e+01,9.982855
98,4.901100e+01,9.995269
99,4.951100e+01,9.999307
100,5.001200e+01,9.995432
101,5.051100e+01,9.998806
102,5.101100e+01,10.004812
103,5.151100e+01,10.016082
104,5.201100e+01,10.023337
105,5.251200e+01,10.026093
106,5.301200e+01,10.022980
107,5.351200e+01,10.013955
108,5.401200e+01,10.012528
109,5.451200e+01,10.017602
110,5.501100e+01,10.012978
111,5.551300e+01,9.998653
112,5.601200e+01,9.985591
113,5.651200e+01,9.980097
114,5.701200e+01,9.973194
115,5.751100e+01,9.961264
116,5.801200e+01,9.950878
117,5.851100e+01,9.956161
118,5.901100e+01,9.969116
119,5.951100e+01,9.992246
120,6.001200e+01,10.005613
121,6.051100e+01,10.013780
122,6.101400e+01,10.018497
123,6.151200e+01,10.027856
124,6.201700e+01,10.037156
125,6.251100e+01,10.042126
126,6.301200e+01,10.041354
127,6.351000e+01,10.037903
128,6.401200e+01,10.020789
129,6.451200e+01,10.007055
130,6.501100e+01,9.995879
131,6.551100e+01,9.990720
132,6.601100e+01,9.981610
133,6.651100e+01,9.975945
134,6.701100e+01,9.977514
135,6.751100e+01,9.984581
136,6.801100e+01,9.992416
137,6.851000e+01,9.990504
138,6.901100e+01,9.985615
139,6.951100e+01,9.991570
140,7.001100e+01,9.989723
141,7.051100e+01,9.982350
142,7.101100e+01,9.985952
143,7.151100e+01,9.995166
144,7.201100e+01,9.998951
145,7.251000e+01,9.998705
146,7.301200e+01,10.001992
147,7.351100e+01,10.002903
148,7.401200e+01,10.006246
149,7.451100e+01,9.999601
150,7.501100e+01,9.995090
151,7.551300e+01,10.002746
152,7.601200e+01,10.009945
153,7.651600e+01,10.004177
154,7.701100e+01,10.000476
155,7.751200e+01,10.000682
156,7.801100e+01,10.000612
157,7.851100e+01,10.002306
158,7.901200e+01,10.005207
159,7.951200e+01,10.012534
160,8.001200e+01,10.014546
161,8.051200e+01,10.011497
162,8.101100e+01,10.008905
163,8.151100e+01,10.000574
164,8.202700e+01,9.991731
165,8.251200e+01,9.983508
166,8.301100e+01,9.980646
167,8.351100e+01,9.977301
168,8.401100e+01,9.975041
169,8.451100e+01,9.979403
170,8.501100e+01,9.980815
171,8.551100e+01,9.983512
172,8.601100e+01,9.992707
173,8.651100e+01,10.010681
174,8.701100e+01,10.025011
175,8.751100e+01,10.033433
176,8.801100e+01,10.027456
177,8.851100e+01,10.020878
178,8.901600e+01,10.019628
179,8.951100e+01,10.013073
180,9.001400e+01,10.006583
181,9.051600e+01,9.996382
182,9.103300e+01,9.989120
183,9.151100e+01,9.979409
184,9.201300e+01,9.968280
185,9.251100e+01,9.963255
186,9.301100e+01,9.975764
187,9.351100e+01,9.991310
188,9.401100e+01,10.008803
189,9.451100e+01,10.014721
190,9.501100e+01,10.007132
191,9.551100e+01,9.997822
192,9.601600e+01,9.998431
193,9.651600e+01,9.998649
194,9.701600e+01,9.997602
195,9.751600e+01,9.999380
196,9.801600e+01,9.996351
197,9.851600e+01,9.999774
198,9.901100e+01,10.007934
199,9.951300e+01,10.015078
200,1.000160e+02,10.015913
201,1.005160e+02,10.014502
202,1.010160e+02,10.013093
203,1.015170e+02,10.016334
204,1.020110e+02,10.021758
205,1.025200e+02,10.023523
206,1.030160e+02,10.014130
207,1.035160e+02,10.006189
208,1.040180e+02,9.995260
209,1.045170e+02,9.985559
210,1.050160e+02,9.975672
211,1.055210e+02,9.977874
212,1.060110e+02,9.982363
213,1.065120e+02,9.986774
214,1.070100e+02,9.988059
215,1.075110e+02,9.984118
216,1.080110e+02,9.986769
217,1.085170e+02,9.996386
218,1.090150e+02,10.005129
219,1.095140e+02,10.009051
220,1.100140e+02,10.005766
221,1.105150e+02,10.006017
222,1.110110e+02,10.006289
223,1.115110e+02,9.995559
224,1.120110e+02,9.994812
225,1.125100e+02,9.999748
226,1.130110e+02,10.006582
227,1.135150e+02,10.011240
228,1.140150e+02,10.015152
229,1.145140e+02,10.017284
230,1.150140e+02,10.021905
231,1.155150e+02,10.024623
232,1.160120e+02,10.011268
233,1.165110e+02,9.984392
234,1.170100e+02,9.973286
235,1.175110e+02,9.972733
236,1.180110e+02,9.975576
237,1.185150e+02,9.974929
238,1.190150e+02,9.980582
239,1.195150e+02,9.991389
240,1.200200e+02,9.997069
241,1.205140e+02,10.001987
242,1.210120e+02,10.010891
243,1.215110e+02,10.018489
244,1.220110e+02,10.019427
245,1.225110e+02,10.013485
246,1.230110e+02,10.012717
247,1.235110e+02,10.008200
248,1.240110e+02,9.995857
249,1.245110e+02,9.988761
250,1.250110e+02,9.988115
251,1.255100e+02,9.987780
252,1.260130e+02,9.984379
253,1.265100e+02,9.982837
254,1.270110e+02,9.990366
255,1.275110e+02,9.999846
256,1.280120e+02,10.006155
257,1.285110e+02,10.016017
258,1.290110e+02,10.030469
259,1.295110e+02,10.029922
260,1.300110e+02,10.014331
261,1.305110e+02,10.006564
262,1.310110e+02,9.993947
263,1.315110e+02,9.990011
264,1.320110e+02,9.993613
265,1.325120e+02,10.000491
266,1.330110e+02,10.001542
267,1.335140e+02,9.990821
268,1.340110e+02,9.975362
269,1.345150e+02,9.968342
270,1.350230e+02,9.968473
271,1.355120e+02,9.976371
272,1.360100e+02,9.981386
273,1.365110e+02,9.990721
274,1.370110e+02,10.000360
275,1.375110e+02,10.019994
276,1.380110e+02,10.030417
277,1.385110e+02,10.033690
278,1.390110e+02,10.033202
279,1.395110e+02,10.028770
280,1.400110e+02,10.019863
281,1.405110e+02,10.005876
282,1.410110e+02,9.991290
283,1.415110e+02,9.984833
284,1.420110e+02,9.985878
285,1.425100e+02,9.991009
286,1.430100e+02,9.997204
287,1.435110e+02,9.999783
288,1.440110e+02,10.000560
289,1.445100e+02,10.003148
290,1.450110e+02,10.002254
291,1.455100e+02,9.995390
292,1.460110e+02,9.987149
293,1.465110e+02,9.980105
294,1.470110e+02,9.987485
295,1.475110e+02,9.995373
296,1.480140e+02,10.008762
297,1.485110e+02,10.021850
298,1.490160e+02,10.029474
299,1.495110e+02,10.027330
300,1.500130e+02,10.015778
301,1.505110e+02,9.998992
302,1.510110e+02,9.983419
303,1.515100e+02,9.977818
304,1.520100e+02,9.982345
305,1.525130e+02,9.986314
306,1.530110e+02,9.988338
307,1.535100e+02,9.986844
308,1.540110e+02,9.982565
309,1.545110e+02,9.990112
310,1.550110e+02,10.001861
311,1.555110e+02,10.001733
312,1.560110e+02,10.001393
313,1.565110e+02,10.004064
314,1.570120e+02,10.006143
315,1.575110e+02,10.008439
316,1.580150e+02,10.007655
317,1.585150e+02,10.005611
318,1.590110e+02,10.005703
319,1.595110e+02,10.010489
320,1.600120e+02,10.018086
321,1.605110e+02,10.017375
322,1.610110e+02,10.012626
323,1.615170e+02,10.011547
324,1.620110e+02,10.000936
325,1.625150e+02,9.992477
326,1.630140e+02,9.988689
327,1.635190e+02,9.983736
328,1.640110e+02,9.984972
329,1.645120e+02,9.988212
330,1.650100e+02,9.992632
331,1.655100e+02,9.990602
332,1.660110e+02,9.989175
333,1.665110e+02,9.988254
334,1.670110e+02,9.995692
335,1.675110e+02,10.005791
336,1.680120e+02,10.010981
337,1.685110e+02,10.016595
338,1.690110e+02,10.011889
339,1.695110e+02,10.004591
340,1.700110e+02,10.005412
341,1.705110e+02,10.010757
342,1.710110e+02,10.015328
343,1.715110e+02,10.009828
344,1.720110e+02,10.000893
345,1.725110e+02,9.986525
346,1.730110e+02,9.980976
347,1.735100e+02,9.976836
348,1.740100e+02,9.976593
349,1.745110e+02,9.985879
350,1.750100e+02,9.992190
351,1.755100e+02,9.988827
352,1.760110e+02,9.988111
353,1.765110e+02,10.006236
354,1.770140e+02,10.021197
355,1.775110e+02,10.031600
356,1.780160e+02,10.025803
357,1.785110e+02,10.010362
358,1.790140e+02,10.001042
359,1.795110e+02,9.997790
360,1.800100e+02,10.000319
361,1.805110e+02,10.001074
362,1.810100e+02,9.998950
363,1.815110e+02,10.000987
364,1.820110e+02,10.005906
365,1.825100e+02,10.007831
366,1.830110e+02,9.999325
367,1.835110e+02,9.991964
368,1.840100e+02,9.987177
369,1.845100e+02,9.990252
370,1.850110e+02,9.998154
371,1.855100e+02,9.998092
372,1.860100e+02,9.992280
373,1.865100e+02,9.986097
374,1.870110e+02,9.981964
375,1.875100e+02,9.985089
376,1.880130e+02,10.002506
377,1.885110e+02,10.009624
378,1.890110e+02,10.012211
379,1.895110e+02,10.012818
380,1.900110e+02,10.003108
381,1.905110e+02,9.987208
382,1.910110e+02,9.982827
383,1.915140e+02,9.992442
384,1.920110e+02,10.004591
385,1.925190e+02,10.008311
386,1.930110e+02,10.001424
387,1.935120e+02,9.985769
388,1.940110e+02,9.979239
389,1.945100e+02,9.988750
390,1.950110e+02,10.007219
391,1.955110e+02,10.021382
392,1.960110e+02,10.020529
393,1.965100e+02,10.006739
394,1.970110e+02,10.002399
395,1.975100e+02,9.997494
396,1.980110e+02,9.992803
397,1.985100e+02,9.989382
398,1.990110e+02,9.988564
399,1.995220e+02,9.990548
