Point,Time (s),Temperature (K)
0,1.200000e-02,8.999421
1,5.120000e-01,9.017492
2,1.009000e+00,9.030252
3,1.509000e+00,9.045075
4,2.009000e+00,9.041249
5,2.509000e+00,9.034392
6,3.009000e+00,9.032364
7,3.509000e+00,9.014327
8,4.012000e+00,8.990005
9,4.510000e+00,8.971538
10,5.012000e+00,8.978132
11,5.514000e+00,9.049364
12,6.016000e+00,9.186200
13,6.514000e+00,9.338746
14,7.015000e+00,9.548038
15,7.516000e+00,9.722512
16,8.014000e+00,9.930222
17,8.515000e+00,10.089446
18,9.015000e+00,10.251199
19,9.516000e+00,10.343222
20,1.001600e+01,10.422606
21,1.051600e+01,10.452495
22,1.101000e+01,10.449153
23,1.151000e+01,10.420321
24,1.201000e+01,10.372426
25,1.251000e+01,10.322238
26,1.300900e+01,10.241070
27,1.351900e+01,10.166458
28,1.401000e+01,10.067991
29,1.451000e+01,9.990737
30,1.500900e+01,9.930047
31,1.551000e+01,9.902861
32,1.601000e+01,9.873883
33,1.651000e+01,9.863419
34,1.700900e+01,9.855186
35,1.751000e+01,9.866203
36,1.801000e+01,9.899845
37,1.851200e+01,9.932585
38,1.901000e+01,9.964367
39,1.951200e+01,9.988460
40,2.001000e+01,10.019625
41,2.051200e+01,10.047717
42,2.101000e+01,10.063935
43,2.151000e+01,10.073077
44,2.201000e+01,10.074798
45,2.252400e+01,10.070049
46,2.301000e+01,10.070024
47,2.351000e+01,10.063748
48,2.401000e+01,10.051322
49,2.451000e+01,10.020067
50,2.501000e+01,9.997128
51,2.551000e+01,9.983560
52,2.600900e+01,9.980668
53,2.651000e+01,9.969213
54,2.701000e+01,9.962536
55,2.751000e+01,9.963392
56,2.801000e+01,9.972285
57,2.851000e+01,9.984368
58,2.901000e+01,9.991188
59,2.951000e+01,10.002212
60,3.000900e+01,10.001317
61,3.050800e+01,10.000238
62,3.101000e+01,10.002680
63,3.150900e+01,9.999372
64,3.201000e+01,9.990519
65,3.250900e+01,9.991563
66,3.301200e+01,10.000793
67,3.351000e+01,10.008114
68,3.401200e+01,10.004332
69,3.451000e+01,10.002898
70,3.501200e+01,10.003427
71,3.550900e+01,9.999114
72,3.601200e+01,9.991837
73,3.650900e+01,9.989331
74,3.700900e+01,9.992787
75,3.751000e+01,9.994349
76,3.800900e+01,9.993149
77,3.850800e+01,9.990527
78,3.901000e+01,9.987975
79,3.951000e+01,10.002336
80,4.000900e+01,10.021008
81,4.050900e+01,10.019556
82,4.101000e+01,10.007384
83,4.151000e+01,9.993304
84,4.201000e+01,9.996545
85,4.251000e+01,10.000315
86,4.301000e+01,10.003110
87,4.351000e+01,10.007538
88,4.401000e+01,10.003135
89,4.450900e+01,9.998546
90,4.500900e+01,9.996684
91,4.551000e+01,9.992237
92,4.600900e+01,9.985363
93,4.651000e+01,9.973998
94,4.700900e+01,9.969239
95,4.751200e+01,9.986293
96,4.801000e+01,10.009272
97,4.851200e+01,10.011718
98,4.900900e+01,9.996515
99,4.951200e+01,9.986609
100,5.001000e+01,9.977396
101,5.051000e+01,9.986799
102,5.101000e+01,10.006076
103,5.151100e+01,10.019619
104,5.200900e+01,10.026678
105,5.251000e+01,10.030086
106,5.301000e+01,10.034221
107,5.351000e+01,10.021732
108,5.401100e+01,10.007924
109,5.450900e+01,10.003588
110,5.501000e+01,10.003325
111,5.551000e+01,9.991520
112,5.601000e+01,9.979870
113,5.651000e+01,9.973067
114,5.701000e+01,9.975943
115,5.750900e+01,9.975656
116,5.801000e+01,9.974984
117,5.851000e+01,9.984097
118,5.901000e+01,9.991986
119,5.951000e+01,9.995372
120,6.000900e+01,9.995552
121,6.051000e+01,9.998348
122,6.100900e+01,9.998090
123,6.151000e+01,10.007192
124,6.201200e+01,10.020805
125,6.251100e+01,10.029307
126,6.301200e+01,10.030610
127,6.351000e+01,10.037030
128,6.401200e+01,10.035163
129,6.450900e+01,10.029407
130,6.501100e+01,10.021189
131,6.551000e+01,10.000461
132,6.601000e+01,9.973845
133,6.650900e+01,9.964705
134,6.701000e+01,9.970696
135,6.751000e+01,9.981720
136,6.800900e+01,9.983323
137,6.850900e+01,9.980209
138,6.900900e+01,9.987171
139,6.951000e+01,9.990586
140,7.001000e+01,9.994602
141,7.051000e+01,9.990093
142,7.100900e+01,9.990602
143,7.151000e+01,9.991456
144,7.201000e+01,9.991555
145,7.251000e+01,9.986435
146,7.300900e+01,9.987185
147,7.350900e+01,10.001664
148,7.400900e+01,10.021231
149,7.451000e+01,10.024581
150,7.501000e+01,10.034559
151,7.550900e+01,10.034714
152,7.601100e+01,10.018035
153,7.651300e+01,10.008097
154,7.701100e+01,10.000477
155,7.751200e+01,9.988835
156,7.800900e+01,9.975098
157,7.851200e+01,9.976484
158,7.901100e+01,9.977539
159,7.951000e+01,9.984098
160,8.001100e+01,9.992235
161,8.051000e+01,10.006036
162,8.101100e+01,10.010838
163,8.151000e+01,10.006620
164,8.201000e+01,9.990935
165,8.251000e+01,9.975986
166,8.300900e+01,9.982342
167,8.350900e+01,9.990865
168,8.401000e+01,9.993496
169,8.450900e+01,9.987010
170,8.501000e+01,9.974852
171,8.551100e+01,9.982017
172,8.601000e+01,10.001121
173,8.651000e+01,10.012436
174,8.701000e+01,10.012940
175,8.750900e+01,10.016018
176,8.801100e+01,10.025080
177,8.851000e+01,10.033146
178,8.901000e+01,10.029333
179,8.951000e+01,10.038715
180,9.001100e+01,10.043637
181,9.051000e+01,10.023482
182,9.101200e+01,10.001801
183,9.151000e+01,9.991406
184,9.201200e+01,9.987067
185,9.251000e+01,9.972277
186,9.301200e+01,9.959385
187,9.351000e+01,9.960424
188,9.401100e+01,9.972908
189,9.451000e+01,9.975474
190,9.501100e+01,9.964033
191,9.551000e+01,9.968251
192,9.601100e+01,9.986843
193,9.651000e+01,10.000655
194,9.701100e+01,10.010588
195,9.751600e+01,10.014073
196,9.801600e+01,10.018472
197,9.851200e+01,10.021375
198,9.900900e+01,10.028861
199,9.950900e+01,10.032276
200,1.000100e+02,10.031528
201,1.005100e+02,10.034189
202,1.010100e+02,10.029368
203,1.015090e+02,10.017203
204,1.020100e+02,10.004137
205,1.025100e+02,10.000712
206,1.030100e+02,9.993131
207,1.035080e+02,9.985921
208,1.040100e+02,9.980941
209,1.045170e+02,9.974833
210,1.050150e+02,9.982002
211,1.055150e+02,9.990945
212,1.060150e+02,9.995783
213,1.065180e+02,9.989057
214,1.070150e+02,9.974440
215,1.075140e+02,9.965281
216,1.080100e+02,9.964574
217,1.085100e+02,9.981685
218,1.090100e+02,9.991961
219,1.095100e+02,9.991010
220,1.100090e+02,9.994458
221,1.105130e+02,9.990574
222,1.110120e+02,9.988904
223,1.115150e+02,9.995256
224,1.120140e+02,9.997478
225,1.125140e+02,9.997487
226,1.130140e+02,10.014673
227,1.135150e+02,10.031574
228,1.140100e+02,10.043041
229,1.145100e+02,10.034628
230,1.150100e+02,10.021801
231,1.155100e+02,10.014946
232,1.160090e+02,10.005115
233,1.165090e+02,9.990247
234,1.170130e+02,9.989236
235,1.175130e+02,9.990433
236,1.180200e+02,9.994740
237,1.185150e+02,10.009195
238,1.190100e+02,10.011796
239,1.195090e+02,10.008048
240,1.200130e+02,10.001131
241,1.205090e+02,9.991999
242,1.210120e+02,9.991549
243,1.215090e+02,9.986931
244,1.220180e+02,9.982978
245,1.225140e+02,9.986615
246,1.230140e+02,9.997719
247,1.235140e+02,10.008256
248,1.240130e+02,10.008973
249,1.245090e+02,9.996202
250,1.250090e+02,9.988965
251,1.255090e+02,9.991949
252,1.260100e+02,9.981513
253,1.265100e+02,9.977298
254,1.270100e+02,9.973267
255,1.275100e+02,9.964461
256,1.280090e+02,9.972953
257,1.285090e+02,9.981020
258,1.290090e+02,9.994491
259,1.295090e+02,10.007599
260,1.300100e+02,10.017164
261,1.305100e+02,10.017268
262,1.310100e+02,10.024002
263,1.315100e+02,10.016267
264,1.320100e+02,9.999036
265,1.325100e+02,9.988355
266,1.330080e+02,9.987572
267,1.335090e+02,10.001200
268,1.340090e+02,10.011114
269,1.345130e+02,10.021454
270,1.350100e+02,10.032353
271,1.355130e+02,10.033921
272,1.360090e+02,10.032812
273,1.365110e+02,10.024395
274,1.370090e+02,10.017474
275,1.375090e+02,10.012568
276,1.380090e+02,10.004588
277,1.385100e+02,9.995356
278,1.390100e+02,9.989590
279,1.395100e+02,9.981990
280,1.400080e+02,9.978945
281,1.405090e+02,9.977023
282,1.410100e+02,9.966622
283,1.415150e+02,9.951284
284,1.420090e+02,9.963997
285,1.425110e+02,9.980917
286,1.430100e+02,9.982578
287,1.435090e+02,9.982782
288,1.440090e+02,9.990927
289,1.445100e+02,10.006180
290,1.450100e+02,10.013169
291,1.455100e+02,10.018183
292,1.460090e+02,10.024551
293,1.465100e+02,10.024387
294,1.470120e+02,10.019649
295,1.475090e+02,10.008991
296,1.480190e+02,10.006886
297,1.485090e+02,10.008990
298,1.490120e+02,10.009088
299,1.495100e+02,10.005053
300,1.500120e+02,10.002285
301,1.505100e+02,9.999979
302,1.510120e+02,10.001282
303,1.515090e+02,10.000604
304,1.520090e+02,9.999737
305,1.525090e+02,9.992826
306,1.530090e+02,9.973820
307,1.535100e+02,9.968724
308,1.540080e+02,9.974769
309,1.545090e+02,9.986860
310,1.550100e+02,10.003668
311,1.555110e+02,10.014830
312,1.560090e+02,10.017146
313,1.565080e+02,10.020997
314,1.570100e+02,10.023227
315,1.575100e+02,10.023039
316,1.580100e+02,10.014215
317,1.585100e+02,10.004084
318,1.590090e+02,9.991482
319,1.595100e+02,9.980795
320,1.600090e+02,9.963513
321,1.605090e+02,9.964436
322,1.610090e+02,9.971518
323,1.615100e+02,9.978252
324,1.620090e+02,9.986249
325,1.625200e+02,10.001279
326,1.630100e+02,10.020661
327,1.635130e+02,10.023813
328,1.640090e+02,10.007779
329,1.645130e+02,9.991586
330,1.650090e+02,9.981449
331,1.655120e+02,9.984695
332,1.660100e+02,9.995952
333,1.665100e+02,10.012352
334,1.670100e+02,10.020748
335,1.675090e+02,10.020229
336,1.680100e+02,10.010433
337,1.685090e+02,9.995077
338,1.690090e+02,9.989582
339,1.695090e+02,9.987234
340,1.700090e+02,9.982546
341,1.705090e+02,9.981601
342,1.710080e+02,9.985849
343,1.715240e+02,9.989811
344,1.720090e+02,9.991219
345,1.725090e+02,9.996220
346,1.730090e+02,9.997391
347,1.735100e+02,10.007579
348,1.740100e+02,10.024691
349,1.745100e+02,10.026170
350,1.750100e+02,10.009950
351,1.755090e+02,10.004606
352,1.760100e+02,10.010760
353,1.765100e+02,10.022180
354,1.770100e+02,10.029634
355,1.775090e+02,10.030117
356,1.780120e+02,10.026184
357,1.785100e+02,10.024881
358,1.790120e+02,10.012042
359,1.795210e+02,9.988461
